Alpha [deg], Real(lambda) [], Imag(lambda) [], Strouhal number [], Frequency [Hz]
3.000000000000000000e+00 -7.578289773501163673e-02 4.384003259000783248e-01 6.977357892009533602e-02 7.341393955940465332e+01
3.200000000000000178e+00 -6.655562355702382416e-02 4.444000178645390875e-01 7.072845955326799439e-02 7.441864005169935581e+01
3.399999999999999911e+00 -5.675460842948806817e-02 4.510250839962580138e-01 7.178287157644176741e-02 7.552806487608221175e+01
3.600000000000000089e+00 -4.459501962399275293e-02 4.569331526840202939e-01 7.272316991222557703e-02 7.651742225547212684e+01
3.799999999999999822e+00 -3.891400754849198840e-02 4.596184619539944727e-01 7.315055015627244805e-02 7.696710059920840763e+01
4.000000000000000000e+00 -3.829229149466094329e-02 4.633751065292440185e-01 7.374843870986277916e-02 7.759618333820344560e+01
4.200000000000000178e+00 -4.122818997928814899e-02 4.655938239946424972e-01 7.410155856180526690e-02 7.796772683459511200e+01
4.400000000000000355e+00 -4.386558622559572768e-02 4.654537359662409002e-01 7.407926285961714818e-02 7.794426787837977599e+01
4.599999999999999645e+00 -4.741735900926270786e-02 4.654843845271587899e-01 7.408414072958588448e-02 7.794940024591210204e+01
4.799999999999999822e+00 -5.125594519625788908e-02 4.651191183462201062e-01 7.402600681134519078e-02 7.788823325367623340e+01
5.000000000000000000e+00 -5.799074234657027732e-02 4.652360104748448077e-01 7.404461077142435177e-02 7.790780785515083551e+01
5.200000000000000178e+00 -6.090921268742736233e-02 4.639783908621287201e-01 7.384445439353126694e-02 7.769720853580246001e+01
5.400000000000000355e+00 -6.237888698683986821e-02 4.636574369091476799e-01 7.379337298540945833e-02 7.764346201073517761e+01
5.599999999999999645e+00 -6.587042593825963299e-02 4.631226376472906137e-01 7.370825703932300244e-02 7.755390523267898573e+01
5.799999999999999822e+00 -7.548041904553423609e-02 4.691155917188630786e-01 7.466206530353645954e-02 7.855747740632965304e+01
6.000000000000000000e+00 -7.544595178914247080e-02 4.678679916329362976e-01 7.446350358285934445e-02 7.834855594370417009e+01
