Alpha [deg], Real(lambda) [], Imag(lambda) [], Strouhal number [], Frequency [Hz]
2.799999999999999822e+00 -6.092597824152869851e-02 4.406008994506370735e-01 7.012381107830405191e-02 7.378244469978078257e+01
3.000000000000000000e+00 -2.358772348977029865e-02 4.477337494657107064e-01 7.125903941653610740e-02 7.497690234261625619e+01
3.200000000000000178e+00 1.307174929552467994e-02 4.504243138800260171e-01 7.168725604278154695e-02 7.542746070588319185e+01
3.399999999999999911e+00 3.843162568829047027e-02 4.533765391082609231e-01 7.215711728097573552e-02 7.592183644346143012e+01
3.600000000000000089e+00 5.297773682200274808e-02 4.558684135608990773e-01 7.255371141767749665e-02 7.633912244816501413e+01
3.799999999999999822e+00 6.264595976155996893e-02 4.574767294591302047e-01 7.280968284293426462e-02 7.660844890430475118e+01
4.000000000000000000e+00 6.981218194138626154e-02 4.553272389070971982e-01 7.246758079644888273e-02 7.624849805539405168e+01
4.200000000000000178e+00 6.465245172077238589e-02 4.600238190480834266e-01 7.321506474151408261e-02 7.703498116281046748e+01
4.400000000000000355e+00 6.853181142059835973e-02 4.587262211416011093e-01 7.300854562055172914e-02 7.681768713118921710e+01
4.599999999999999645e+00 6.390841700703597805e-02 4.605701304520344874e-01 7.330201290192035757e-02 7.712646574897706842e+01
4.799999999999999822e+00 6.049704644556191252e-02 4.615158409521499805e-01 7.345252740274765824e-02 7.728483318028231963e+01
5.000000000000000000e+00 5.817645785834164168e-02 4.633407875282777866e-01 7.374297667121702815e-02 7.759043632362833876e+01
5.200000000000000178e+00 5.379895761982356889e-02 4.648421645587321738e-01 7.398192824705847326e-02 7.784185493820935164e+01
5.400000000000000355e+00 4.964986992449064301e-02 4.702548953958535782e-01 7.484339111541227219e-02 7.874826369534682158e+01
5.599999999999999645e+00 4.559886808284126930e-02 4.748317879428876065e-01 7.557182618827319731e-02 7.951470407635702031e+01
5.799999999999999822e+00 4.442310436049531908e-02 4.786050748032074087e-01 7.617236344379678392e-02 8.014657371042964940e+01
6.000000000000000000e+00 4.409630496620058071e-02 4.840309933202682768e-01 7.703592519660086568e-02 8.105519085903220855e+01
